#    s        x        y     Ue/Vinf    Dstar     Theta      Cf       H
   0.00000  1.00000  0.00221  0.94547  0.041608  0.018145  0.000000     2.293
   0.00453  0.99578  0.00384  0.94753  0.040951  0.017970  0.000000     2.279
   0.01162  0.98916  0.00639  0.95117  0.039752  0.017666  0.000312     2.250
   0.01909  0.98218  0.00905  0.95511  0.038525  0.017346  0.000322     2.221
   0.02693  0.97484  0.01182  0.95945  0.037262  0.017004  0.000343     2.191
   0.03515  0.96714  0.01470  0.96414  0.035984  0.016645  0.000367     2.162
   0.04374  0.95909  0.01768  0.96923  0.034702  0.016267  0.000392     2.133
   0.05269  0.95068  0.02075  0.97472  0.033425  0.015874  0.000421     2.106
   0.06198  0.94195  0.02391  0.98063  0.032163  0.015466  0.000451     2.080
   0.07158  0.93291  0.02715  0.98687  0.030930  0.015051  0.000484     2.055
   0.08147  0.92358  0.03045  0.99345  0.029730  0.014632  0.000518     2.032
   0.09163  0.91399  0.03379  1.00036  0.028579  0.014208  0.000554     2.011
   0.10202  0.90417  0.03718  1.00761  0.027478  0.013782  0.000591     1.994
   0.11262  0.89414  0.04059  1.01513  0.026436  0.013359  0.000629     1.979
   0.12339  0.88392  0.04401  1.02287  0.025460  0.012941  0.000666     1.967
   0.13431  0.87355  0.04744  1.03084  0.024551  0.012530  0.000703     1.959
   0.14536  0.86305  0.05087  1.03900  0.023711  0.012126  0.000738     1.955
   0.15652  0.85242  0.05428  1.04731  0.022945  0.011732  0.000769     1.956
   0.16776  0.84170  0.05767  1.05576  0.022250  0.011349  0.000796     1.960
   0.17908  0.83090  0.06104  1.06429  0.021630  0.010979  0.000818     1.970
   0.19046  0.82003  0.06438  1.07297  0.021081  0.010618  0.000835     1.985
   0.20188  0.80909  0.06769  1.08176  0.020607  0.010266  0.000843     2.007
   0.21333  0.79812  0.07095  1.09071  0.020204  0.009922  0.000844     2.036
   0.22481  0.78710  0.07418  1.09982  0.019875  0.009586  0.000836     2.073
   0.23631  0.77604  0.07736  1.10921  0.019615  0.009251  0.000816     2.120
   0.24783  0.76497  0.08049  1.11892  0.019427  0.008918  0.000785     2.178
   0.25935  0.75387  0.08358  1.12905  0.019310  0.008581  0.000744     2.250
   0.27087  0.74275  0.08662  1.13978  0.019262  0.008236  0.000710     2.339
   0.28239  0.73162  0.08960  1.15130  0.019285  0.007877  0.000661     2.448
   0.29391  0.72049  0.09254  1.16387  0.019370  0.007497  0.000596     2.584
   0.30541  0.70935  0.09542  1.17777  0.019518  0.007090  0.000513     2.753
   0.31691  0.69820  0.09824  1.19334  0.019720  0.006649  0.000412     2.966
   0.32839  0.68706  0.10101  1.21082  0.019972  0.006171  0.000293     3.237
   0.33985  0.67593  0.10373  1.22968  0.020275  0.005678  0.000157     3.571
   0.35130  0.66479  0.10638  1.25547  0.020538  0.005022  0.000002     4.090
   0.36272  0.65367  0.10897  1.28293  0.020803  0.004359 -0.000139     4.773
   0.37411  0.64256  0.11151  1.31151  0.021050  0.003707 -0.000266     5.678
   0.38548  0.63146  0.11398  1.34246  0.021228  0.003042 -0.000335     6.978
   0.39682  0.62038  0.11639  1.37718  0.021275  0.002343 -0.000365     9.080
   0.40813  0.60932  0.11874  1.41831  0.021087  0.001572 -0.000383    13.416
   0.41941  0.59828  0.12103  1.40756  0.021303  0.001795 -0.000401    11.866
   0.43065  0.58726  0.12325  1.40861  0.021183  0.001778 -0.000421    11.911
   0.44185  0.57627  0.12540  1.40961  0.020951  0.001763 -0.000761    11.884
   0.45301  0.56530  0.12749  1.41057  0.020626  0.001748 -0.000768    11.798
   0.46413  0.55437  0.12950  1.41150  0.020227  0.001734 -0.000775    11.662
   0.47521  0.54346  0.13145  1.41242  0.019763  0.001721 -0.000782    11.482
   0.48623  0.53260  0.13333  1.41334  0.019248  0.001708 -0.000789    11.267
   0.49721  0.52177  0.13513  1.41427  0.018685  0.001696 -0.000796    11.019
   0.50813  0.51099  0.13687  1.41521  0.018086  0.001683 -0.000804    10.745
   0.51899  0.50025  0.13853  1.41619  0.017455  0.001671 -0.000811    10.448
   0.52980  0.48956  0.14011  1.41720  0.016798  0.001658 -0.000819    10.131
   0.54054  0.47893  0.14162  1.41827  0.016120  0.001645 -0.000828     9.797
   0.55122  0.46835  0.14305  1.41940  0.015427  0.001632 -0.000837     9.451
   0.56182  0.45783  0.14441  1.42062  0.014722  0.001619 -0.000846     9.095
   0.57235  0.44738  0.14568  1.42193  0.014012  0.001605 -0.000857     8.732
   0.58280  0.43699  0.14688  1.42335  0.013296  0.001590 -0.000869     8.362
   0.59317  0.42669  0.14799  1.42491  0.012584  0.001575 -0.000882     7.992
   0.60344  0.41647  0.14902  1.42664  0.011873  0.001558 -0.000897     7.620
   0.61362  0.40633  0.14998  1.42855  0.011173  0.001541 -0.000914     7.250
   0.62370  0.39630  0.15084  1.43068  0.010484  0.001523 -0.000933     6.886
   0.63366  0.38637  0.15163  1.43307  0.009807  0.001503 -0.000955     6.526
   0.64350  0.37655  0.15233  1.43576  0.009148  0.001482 -0.000981     6.173
   0.65321  0.36685  0.15295  1.43881  0.008510  0.001460 -0.001012     5.830
   0.66279  0.35729  0.15349  1.44226  0.007890  0.001436 -0.001048     5.496
   0.67222  0.34787  0.15394  1.44617  0.007296  0.001410 -0.001091     5.175
   0.68149  0.33861  0.15431  1.45061  0.006726  0.001382 -0.001137     4.866
   0.69059  0.32951  0.15461  1.45562  0.006180  0.001353 -0.001169     4.568
   0.69952  0.32059  0.15482  1.46124  0.005658  0.001322 -0.001176     4.280
   0.70825  0.31186  0.15496  1.46734  0.005163  0.001290 -0.001120     4.003
   0.71677  0.30334  0.15503  1.47409  0.004683  0.001256 -0.000943     3.730
   0.72509  0.29502  0.15501  1.48170  0.004232  0.001218 -0.000584     3.473
   0.73320  0.28691  0.15487  1.48996  0.003855  0.001179  0.000047     3.269
   0.74115  0.27897  0.15461  1.49847  0.003538  0.001139  0.001007     3.105
   0.74895  0.27118  0.15423  1.50678  0.003276  0.001101  0.002151     2.977
   0.75661  0.26353  0.15374  1.51457  0.003058  0.001064  0.003419     2.875
   0.76416  0.25600  0.15314  1.52162  0.002872  0.001029  0.004718     2.792
   0.77160  0.24860  0.15244  1.52769  0.002717  0.000996  0.006015     2.727
   0.77894  0.24130  0.15164  1.53283  0.002582  0.000966  0.007293     2.672
   0.78618  0.23412  0.15073  1.53689  0.002466  0.000938  0.008486     2.629
   0.79333  0.22704  0.14973  1.53995  0.002365  0.000912  0.009644     2.592
   0.80039  0.22006  0.14863  1.54211  0.002273  0.000888  0.010710     2.559
   0.80737  0.21319  0.14744  1.54319  0.002193  0.000865  0.011713     2.534
   0.81426  0.20642  0.14616  1.54339  0.002120  0.000844  0.012696     2.511
   0.82107  0.19975  0.14480  1.54275  0.002053  0.000824  0.013574     2.491
   0.82779  0.19318  0.14335  1.54118  0.001993  0.000806  0.014416     2.474
   0.83443  0.18673  0.14182  1.53887  0.001936  0.000788  0.015227     2.459
   0.84098  0.18038  0.14021  1.53572  0.001885  0.000771  0.015961     2.446
   0.84744  0.17414  0.13853  1.53190  0.001837  0.000755  0.016682     2.434
   0.85381  0.16801  0.13678  1.52732  0.001792  0.000739  0.017336     2.424
   0.86009  0.16200  0.13497  1.52220  0.001748  0.000724  0.017979     2.414
   0.86628  0.15610  0.13309  1.51629  0.001708  0.000710  0.018566     2.406
   0.87237  0.15033  0.13115  1.50979  0.001670  0.000696  0.019181     2.398
   0.87836  0.14467  0.12916  1.50272  0.001633  0.000683  0.019719     2.391
   0.88425  0.13915  0.12712  1.49503  0.001599  0.000670  0.020240     2.385
   0.89004  0.13375  0.12504  1.48689  0.001565  0.000658  0.020746     2.379
   0.89572  0.12848  0.12291  1.47816  0.001534  0.000646  0.021202     2.374
   0.90129  0.12335  0.12075  1.46902  0.001503  0.000634  0.021680     2.369
   0.90676  0.11834  0.11856  1.45921  0.001475  0.000623  0.022095     2.367
   0.91211  0.11347  0.11634  1.44930  0.001446  0.000612  0.022535     2.362
   0.91734  0.10874  0.11410  1.43889  0.001418  0.000601  0.022836     2.358
   0.92246  0.10414  0.11184  1.42807  0.001391  0.000591  0.023248     2.354
   0.92747  0.09968  0.10956  1.41676  0.001366  0.000581  0.023630     2.352
   0.93236  0.09536  0.10728  1.40529  0.001340  0.000571  0.023997     2.348
   0.93714  0.09117  0.10499  1.39334  0.001316  0.000561  0.024281     2.346
   0.94180  0.08711  0.10270  1.38107  0.001293  0.000552  0.024649     2.345
   0.94634  0.08319  0.10041  1.36872  0.001269  0.000542  0.024926     2.341
   0.95077  0.07940  0.09812  1.35592  0.001246  0.000533  0.025174     2.338
   0.95509  0.07573  0.09584  1.34271  0.001225  0.000524  0.025520     2.338
   0.95929  0.07219  0.09356  1.32951  0.001202  0.000515  0.025810     2.335
   0.96339  0.06878  0.09130  1.31599  0.001180  0.000506  0.025984     2.332
   0.96737  0.06548  0.08906  1.30196  0.001161  0.000498  0.026287     2.332
   0.97126  0.06231  0.08682  1.28795  0.001140  0.000489  0.026585     2.331
   0.97503  0.05925  0.08461  1.27382  0.001118  0.000481  0.026710     2.327
   0.97871  0.05630  0.08241  1.25912  0.001100  0.000473  0.026920     2.326
   0.98229  0.05346  0.08023  1.24435  0.001080  0.000465  0.027257     2.324
   0.98578  0.05073  0.07807  1.22929  0.001061  0.000457  0.027387     2.323
   0.98917  0.04809  0.07593  1.21409  0.001041  0.000449  0.027600     2.319
   0.99247  0.04556  0.07381  1.19836  0.001023  0.000441  0.027772     2.319
   0.99569  0.04312  0.07171  1.18259  0.001004  0.000434  0.028047     2.317
   0.99882  0.04078  0.06963  1.16630  0.000989  0.000426  0.028131     2.318
   1.00187  0.03852  0.06758  1.15033  0.000967  0.000418  0.028357     2.312
   1.00485  0.03636  0.06554  1.13332  0.000952  0.000411  0.028325     2.314
   1.00774  0.03427  0.06353  1.11653  0.000933  0.000404  0.028735     2.310
   1.01057  0.03227  0.06154  1.09913  0.000917  0.000397  0.028667     2.310
   1.01332  0.03035  0.05956  1.08165  0.000898  0.000390  0.028890     2.305
   1.01601  0.02850  0.05761  1.06345  0.000882  0.000383  0.028930     2.305
   1.01863  0.02673  0.05568  1.04503  0.000865  0.000376  0.029163     2.302
   1.02119  0.02502  0.05377  1.02616  0.000849  0.000369  0.029181     2.299
   1.02369  0.02339  0.05188  1.00667  0.000834  0.000363  0.029264     2.300
   1.02613  0.02183  0.05001  0.98715  0.000817  0.000356  0.029365     2.295
   1.02852  0.02032  0.04815  0.96681  0.000802  0.000350  0.029231     2.294
   1.03085  0.01889  0.04631  0.94611  0.000786  0.000343  0.029384     2.291
   1.03313  0.01751  0.04449  0.92469  0.000774  0.000337  0.029288     2.294
   1.03536  0.01620  0.04269  0.90346  0.000754  0.000330  0.029307     2.284
   1.03754  0.01494  0.04091  0.88060  0.000743  0.000325  0.028933     2.289
   1.03968  0.01374  0.03914  0.85808  0.000724  0.000318  0.029262     2.278
   1.04178  0.01260  0.03738  0.83379  0.000715  0.000313  0.028720     2.286
   1.04383  0.01151  0.03564  0.81008  0.000696  0.000306  0.028998     2.276
   1.04584  0.01048  0.03392  0.78467  0.000682  0.000300  0.028223     2.270
   1.04781  0.00950  0.03221  0.75828  0.000675  0.000296  0.028381     2.281
   1.04974  0.00857  0.03051  0.73258  0.000654  0.000289  0.028146     2.265
   1.05164  0.00769  0.02883  0.70443  0.000645  0.000284  0.027062     2.267
   1.05351  0.00686  0.02716  0.67613  0.000633  0.000279  0.027380     2.266
   1.05534  0.00608  0.02550  0.64704  0.000619  0.000274  0.026508     2.261
   1.05714  0.00535  0.02386  0.61679  0.000607  0.000269  0.025875     2.258
   1.05890  0.00467  0.02223  0.58579  0.000600  0.000265  0.025270     2.266
   1.06064  0.00404  0.02061  0.55452  0.000581  0.000259  0.024543     2.248
   1.06235  0.00345  0.01900  0.52085  0.000576  0.000255  0.023269     2.255
   1.06403  0.00292  0.01741  0.48730  0.000564  0.000250  0.023004     2.251
   1.06569  0.00242  0.01583  0.45236  0.000553  0.000246  0.021447     2.245
   1.06732  0.00198  0.01426  0.41635  0.000545  0.000242  0.020423     2.249
   1.06892  0.00158  0.01271  0.37969  0.000534  0.000238  0.019206     2.242
   1.07051  0.00123  0.01116  0.34169  0.000526  0.000235  0.017718     2.241
   1.07206  0.00092  0.00963  0.30277  0.000518  0.000232  0.016198     2.238
   1.07360  0.00066  0.00812  0.26354  0.000511  0.000228  0.014788     2.246
   1.07512  0.00044  0.00662  0.22316  0.000498  0.000223  0.012549     2.234
   1.07662  0.00027  0.00513  0.18081  0.000495  0.000223  0.011169     2.222
   1.07809  0.00014  0.00366  0.13857  0.000484  0.000215  0.008774     2.257
   1.07955  0.00005  0.00220  0.09481  0.000463  0.000208  0.007169     2.230
   1.08099  0.00001  0.00076  0.04863  0.000463  0.000208  0.004333     2.230
   1.08242  0.00000 -0.00066  0.01523  0.000463  0.000208  0.002359     2.230
   1.08384  0.00005 -0.00209 -0.03488  0.000451  0.000197  0.000365     2.287
   1.08528  0.00013 -0.00352 -0.08325  0.000442  0.000200  0.002652     2.214
   1.08673  0.00027 -0.00496 -0.13343  0.000455  0.000202  0.004943     2.250
   1.08818  0.00045 -0.00641 -0.18130  0.000458  0.000206  0.008770     2.225
   1.08965  0.00069 -0.00785 -0.23035  0.000459  0.000206  0.010650     2.232
   1.09112  0.00098 -0.00929 -0.28341  0.000442  0.000200  0.014382     2.208
   1.09260  0.00133 -0.01073 -0.33454  0.000455  0.000202  0.016490     2.249
   1.09409  0.00173 -0.01217 -0.38616  0.000447  0.000202  0.021216     2.220
   1.09559  0.00220 -0.01359 -0.43872  0.000450  0.000202  0.022625     2.233
   1.09710  0.00273 -0.01501 -0.49076  0.000451  0.000202  0.026811     2.231
   1.09863  0.00332 -0.01642 -0.54206  0.000455  0.000203  0.029336     2.237
   1.10017  0.00398 -0.01781 -0.59233  0.000459  0.000205  0.032448     2.239
   1.10172  0.00470 -0.01918 -0.64104  0.000466  0.000208  0.034929     2.245
   1.10329  0.00548 -0.02054 -0.68912  0.000470  0.000210  0.037355     2.242
   1.10487  0.00633 -0.02187 -0.73440  0.000482  0.000214  0.039323     2.256
   1.10647  0.00725 -0.02318 -0.77777  0.000491  0.000218  0.041688     2.257
   1.10808  0.00823 -0.02446 -0.81867  0.000504  0.000222  0.042537     2.265
   1.10972  0.00928 -0.02572 -0.85659  0.000518  0.000228  0.043928     2.274
   1.11137  0.01038 -0.02695 -0.89215  0.000533  0.000234  0.044516     2.280
   1.11305  0.01155 -0.02815 -0.92486  0.000550  0.000240  0.044690     2.289
   1.11475  0.01278 -0.02933 -0.95557  0.000567  0.000247  0.044825     2.293
   1.11648  0.01408 -0.03047 -0.98239  0.000591  0.000255  0.044453     2.312
   1.11823  0.01543 -0.03158 -1.00787  0.000608  0.000263  0.044243     2.312
   1.12000  0.01684 -0.03267 -1.03051  0.000632  0.000272  0.042788     2.325
   1.12181  0.01831 -0.03372 -1.05082  0.000657  0.000281  0.042397     2.335
   1.12365  0.01984 -0.03475 -1.06878  0.000684  0.000291  0.041071     2.348
   1.12552  0.02142 -0.03574 -1.08502  0.000711  0.000301  0.039793     2.357
   1.12743  0.02306 -0.03671 -1.09897  0.000742  0.000313  0.038293     2.372
   1.12937  0.02477 -0.03765 -1.11173  0.000770  0.000324  0.036991     2.379
   1.13136  0.02653 -0.03856 -1.12257  0.000803  0.000336  0.035297     2.393
   1.13338  0.02835 -0.03944 -1.13209  0.000836  0.000348  0.034060     2.405
   1.13545  0.03023 -0.04030 -1.14009  0.000872  0.000361  0.032431     2.419
   1.13756  0.03217 -0.04114 -1.14742  0.000905  0.000373  0.030976     2.426
   1.13973  0.03418 -0.04195 -1.15291  0.000947  0.000387  0.029393     2.445
   1.14194  0.03625 -0.04273 -1.15806  0.000984  0.000401  0.028203     2.453
   1.14421  0.03838 -0.04349 -1.16179  0.001027  0.000416  0.026510     2.470
   1.14654  0.04059 -0.04423 -1.16494  0.001069  0.000431  0.025365     2.483
   1.14893  0.04287 -0.04495 -1.16735  0.001113  0.000446  0.023873     2.496
   1.15138  0.04522 -0.04565 -1.16891  0.001160  0.000462  0.022641     2.511
   1.15390  0.04765 -0.04632 -1.17009  0.001206  0.000478  0.021432     2.522
   1.15650  0.05016 -0.04697 -1.17059  0.001256  0.000495  0.020204     2.537
   1.15917  0.05276 -0.04760 -1.17045  0.001309  0.000513  0.019149     2.554
   1.16193  0.05545 -0.04821 -1.17000  0.001362  0.000530  0.018058     2.567
   1.16477  0.05823 -0.04880 -1.16914  0.001416  0.000549  0.016959     2.580
   1.16771  0.06111 -0.04937 -1.16777  0.001475  0.000568  0.016002     2.598
   1.17074  0.06410 -0.04992 -1.16599  0.001536  0.000588  0.015109     2.615
   1.17389  0.06720 -0.05045 -1.16401  0.001598  0.000608  0.014159     2.630
   1.17715  0.07042 -0.05096 -1.16162  0.001664  0.000628  0.013267     2.647
   1.18052  0.07376 -0.05145 -1.15907  0.001729  0.000650  0.012477     2.661
   1.18403  0.07724 -0.05192 -1.15602  0.001803  0.000672  0.011678     2.683
   1.18768  0.08086 -0.05237 -1.15293  0.001875  0.000695  0.010976     2.698
   1.19148  0.08463 -0.05279 -1.14952  0.001952  0.000719  0.010193     2.716
   1.19543  0.08856 -0.05320 -1.14588  0.002033  0.000743  0.009567     2.735
   1.19956  0.09268 -0.05358 -1.14198  0.002119  0.000769  0.008914     2.756
   1.20388  0.09697 -0.05394 -1.13797  0.002205  0.000795  0.008294     2.775
   1.20839  0.10147 -0.05428 -1.13377  0.002297  0.000822  0.007682     2.795
   1.21311  0.10619 -0.05459 -1.12938  0.002394  0.000850  0.007146     2.817
   1.21807  0.11114 -0.05487 -1.12488  0.002493  0.000879  0.006625     2.836
   1.22327  0.11633 -0.05513 -1.12016  0.002599  0.000909  0.006117     2.858
   1.22874  0.12180 -0.05537 -1.11540  0.002707  0.000940  0.005671     2.878
   1.23449  0.12754 -0.05557 -1.11046  0.002822  0.000973  0.005218     2.900
   1.24055  0.13360 -0.05574 -1.10541  0.002942  0.001007  0.004820     2.922
   1.24694  0.13999 -0.05589 -1.10029  0.003065  0.001041  0.004428     2.943
   1.25367  0.14672 -0.05600 -1.09506  0.003195  0.001078  0.004065     2.965
   1.26078  0.15382 -0.05608 -1.08982  0.003326  0.001115  0.003736     2.983
   1.26827  0.16132 -0.05613 -1.08453  0.003462  0.001153  0.003423     3.002
   1.27617  0.16922 -0.05614 -1.07925  0.003600  0.001193  0.003159     3.019
   1.28449  0.17754 -0.05613 -1.07398  0.003740  0.001233  0.002908     3.033
   1.29325  0.18629 -0.05608 -1.06879  0.003879  0.001274  0.002693     3.044
   1.30243  0.19548 -0.05601 -1.06370  0.004015  0.001316  0.002504     3.050
   1.31205  0.20509 -0.05591 -1.05873  0.004147  0.001359  0.002350     3.052
   1.32207  0.21511 -0.05579 -1.05395  0.004267  0.001401  0.002232     3.045
   1.33246  0.22550 -0.05566 -1.04950  0.004374  0.001443  0.002142     3.032
   1.34317  0.23621 -0.05553 -1.04537  0.004470  0.001484  0.002096     3.013
   1.35413  0.24718 -0.05539 -1.04168  0.004542  0.001522  0.002094     2.983
   1.36530  0.25834 -0.05527 -1.03853  0.004592  0.001559  0.002122     2.946
   1.37659  0.26964 -0.05517 -1.03602  0.004614  0.001592  0.002204     2.899
   1.38798  0.28102 -0.05509 -1.03433  0.004601  0.001620  0.002331     2.840
   1.39942  0.29246 -0.05504 -1.03354  0.004558  0.001643  0.002516     2.774
   1.41087  0.30391 -0.05502 -1.03420  0.004461  0.001657  0.002775     2.692
   1.42233  0.31537 -0.05496 -1.03500  0.004406  0.001672  0.003099     2.635
   1.43380  0.32684 -0.05483 -1.03548  0.004404  0.001691  0.003566     2.605
   1.44530  0.33834 -0.05462 -1.03562  0.004440  0.001713  0.003912     2.592
   1.45686  0.34989 -0.05436 -1.03538  0.004503  0.001738  0.004096     2.591
   1.46847  0.36150 -0.05403 -1.03468  0.004590  0.001766  0.004154     2.599
   1.48015  0.37317 -0.05365 -1.03364  0.004696  0.001796  0.004124     2.614
   1.49189  0.38491 -0.05321 -1.03222  0.004820  0.001829  0.004026     2.635
   1.50372  0.39672 -0.05272 -1.03052  0.004957  0.001864  0.003883     2.660
   1.51562  0.40861 -0.05218 -1.02855  0.005108  0.001900  0.003700     2.689
   1.52760  0.42058 -0.05158 -1.02643  0.005270  0.001936  0.003502     2.721
   1.53966  0.43262 -0.05095 -1.02406  0.005445  0.001975  0.003291     2.757
   1.55179  0.44474 -0.05027 -1.02154  0.005627  0.002014  0.003073     2.794
   1.56401  0.45693 -0.04954 -1.01886  0.005821  0.002054  0.002850     2.833
   1.57630  0.46920 -0.04878 -1.01611  0.006025  0.002095  0.002639     2.876
